#Creator: pendulumviewEventBuffer
#Creation time: Tue Mar 12 17:31:44 2024
#Time A	Pos A	Time B	Pos B
#[s]	[au]	[s]	[au]
0.025	678	0.050	279
0.075	639	0.101	315
0.127	591	0.151	361
0.177	531	0.202	413
0.228	466	0.253	467
0.278	398	0.304	523
0.329	332	0.354	576
0.380	269	0.405	626
0.431	215	0.455	665
0.481	172	0.506	697
0.532	141	0.557	715
0.582	123	0.608	718
0.633	125	0.658	710
0.684	144	0.709	691
0.735	175	0.759	659
0.785	218	0.811	618
0.836	272	0.861	569
0.886	335	0.912	515
0.938	403	0.962	460
0.988	470	1.013	405
1.039	534	1.064	352
1.089	593	1.115	309
1.140	640	1.165	276
1.191	675	1.216	253
1.242	699	1.267	242
1.292	706	1.318	246
1.343	695	1.369	262
1.393	670	1.419	290
1.444	632	1.470	329
1.495	582	1.520	376
1.546	523	1.571	427
1.596	458	1.622	482
1.647	392	1.673	537
1.697	328	1.723	587
1.749	268	1.774	632
1.799	217	1.824	670
1.850	176	1.876	697
1.900	147	1.926	712
1.951	133	1.977	711
2.002	135	2.027	701
2.053	153	2.078	680
2.103	183	2.129	647
2.154	225	2.180	605
2.204	280	2.230	555
2.255	340	2.281	502
2.306	405	2.331	448
2.357	470	2.382	395
2.407	532	2.433	348
2.458	587	2.484	306
2.508	634	2.534	275
2.560	669	2.585	253
2.610	692	2.635	246
2.661	697	2.687	253
2.711	686	2.737	271
2.762	662	2.788	301
2.813	624	2.838	339
2.864	577	2.889	387
2.914	520	2.940	438
2.965	457	2.991	491
3.015	394	3.041	545
3.066	331	3.092	594
3.117	272	3.142	638
3.168	221	3.193	674
3.218	180	3.244	698
3.269	152	3.295	709
3.319	139	3.345	707
3.371	141	3.396	695
3.421	161	3.446	671
3.472	190	3.498	638
3.522	232	3.548	594
3.573	284	3.599	544
3.624	343	3.649	492
3.675	406	3.700	437
3.725	470	3.751	385
3.776	531	3.802	339
3.826	585	3.852	300
3.878	630	3.903	271
3.928	664	3.953	253
3.979	685	4.004	250
4.029	690	4.055	257
4.080	680	4.106	277
4.130	656	4.156	309
4.182	618	4.207	349
4.232	571	4.257	397
4.283	515	4.309	450
4.333	454	4.359	504
4.384	391	4.410	555
4.435	329	4.460	604
4.486	273	4.511	645
4.536	224	4.562	678
4.587	186	4.613	701
4.637	158	4.663	708
4.689	146	4.714	704
4.739	152	4.764	690
4.790	169	4.815	664
4.840	199	4.866	628
4.891	239	4.917	584
4.941	291	4.967	534
4.993	350	5.018	481
5.043	411	5.068	425
5.094	473	5.120	377
5.144	531	5.170	332
5.195	584	5.221	295
5.246	627	5.271	267
5.297	659	5.322	253
5.347	678	5.373	252
5.398	681	5.424	262
5.448	670	5.474	284
5.500	646	5.525	317
5.550	609	5.575	359
5.601	562	5.626	408
5.651	508	5.677	460
5.702	448	5.728	513
5.752	387	5.778	564
5.804	329	5.829	611
5.854	275	5.879	652
5.905	228	5.931	682
5.955	191	5.981	703
6.006	166	6.032	707
6.057	156	6.082	702
6.108	163	6.133	686
6.158	180	6.184	658
6.209	207	6.235	621
6.259	248	6.285	575
6.311	299	6.336	525
6.361	355	6.386	472
6.412	414	6.438	419
6.462	474	6.488	369
6.513	530	6.539	326
6.563	580	6.589	290
6.615	621	6.640	265
6.665	652	6.690	252
6.716	669	6.742	253
6.766	671	6.792	265
6.817	660	6.843	289
6.868	638	6.893	324
6.919	600	6.944	369
6.969	554	6.995	416
7.020	502	7.046	472
7.070	444	7.096	523
7.122	385	7.147	571
7.172	328	7.197	619
7.223	276	7.249	658
7.273	231	7.299	688
7.324	196	7.350	705
7.374	174	7.400	708
7.426	164	7.451	701
7.476	172	7.501	682
7.527	189	7.553	653
7.577	218	7.603	615
7.628	257	7.654	568
7.679	305	7.704	516
7.730	361	7.755	464
7.780	418	7.806	410
7.831	476	7.857	362
7.881	530	7.907	319
7.933	578	7.958	286
7.983	618	8.008	262
8.034	646	8.060	252
8.084	661	8.110	254
8.135	664	8.161	268
8.185	651	8.211	294
8.237	628	8.262	331
8.287	591	8.312	375
8.338	545	8.364	425
8.388	493	8.414	478
8.439	438	8.465	533
8.491	381	8.515	580
8.541	326	8.566	626
8.592	277	8.617	663
8.642	234	8.668	691
8.693	202	8.718	707
8.744	181	8.769	708
8.795	175	8.819	699
8.845	183	8.871	680
8.896	200	8.921	649
8.946	228	8.972	608
8.998	268	9.022	562
9.048	316	9.073	510
9.099	369	9.123	456
9.149	425	9.175	404
9.200	480	9.225	357
9.250	531	9.276	315
9.302	577	9.326	283
9.352	613	9.377	260
9.403	639	9.428	252
9.453	653	9.479	255
9.504	652	9.529	272
9.555	638	9.580	299
9.606	615	9.630	336
9.656	580	9.682	382
9.707	536	9.732	432
9.757	485	9.783	487
9.809	431	9.833	538
9.859	377	9.884	587
9.910	325	9.934	632
9.960	277	9.986	668
10.011	237	10.036	695
10.061	208	10.087	709
10.113	189	10.137	708
10.163	185	10.188	698
10.214	194	10.239	677
10.264	211	10.290	644
10.315	240	10.340	604
10.366	279	10.391	556
10.417	325	10.441	504
10.467	377	10.493	449
10.518	431	10.543	397
10.568	484	10.594	351
10.620	532	10.644	311
10.670	576	10.695	278
10.721	608	10.745	258
10.771	633	10.797	252
10.822	644	10.847	257
10.872	643	10.898	275
10.924	629	10.948	303
10.974	604	10.999	342
11.025	569	11.050	387
11.075	526	11.101	438
11.126	476	11.151	490
11.177	424	11.202	544
11.228	372	11.252	592
11.278	322	11.304	636
11.329	277	11.354	671
11.379	240	11.405	697
11.431	212	11.455	709
11.481	197	11.506	708
11.532	195	11.556	697
11.582	204	11.608	674
11.633	222	11.659	641
11.683	252	11.709	599
11.735	290	11.760	550
11.785	336	11.810	498
11.836	386	11.862	445
11.886	438	11.912	393
11.937	488	11.963	346
11.988	535	12.013	307
12.039	574	12.064	276
12.089	606	12.115	257
12.140	627	12.166	253
12.190	636	12.216	259
12.242	633	12.267	276
12.292	618	12.317	307
12.343	593	12.369	346
12.393	558	12.419	392
12.444	515	12.470	443
12.494	466	12.520	496
12.546	416	12.571	549
12.596	366	12.621	596
12.647	318	12.673	640
12.697	276	12.723	674
12.748	242	12.774	699
12.799	217	12.824	708
12.850	205	12.875	707
12.900	204	12.926	695
12.951	213	12.977	671
13.001	233	13.027	637
13.053	263	13.078	595
13.103	302	13.128	546
13.154	347	13.180	493
13.204	396	13.230	441
13.255	446	13.281	389
13.305	493	13.331	344
13.357	537	13.382	304
13.407	574	13.432	276
13.458	603	13.484	258
13.508	622	13.534	254
13.559	629	13.585	261
13.610	624	13.635	279
13.661	608	13.686	312
13.711	581	13.737	350
13.762	546	13.788	397
13.812	504	13.838	448
13.864	457	13.889	499
13.914	408	13.939	552
13.965	360	13.991	601
14.015	315	14.041	643
14.066	275	14.092	676
14.116	243	14.142	699
14.168	221	14.193	709
14.218	211	14.243	706
14.269	213	14.295	693
14.319	224	14.345	669
14.370	244	14.396	635
14.421	274	14.446	593
14.472	314	14.497	543
14.522	358	14.548	491
14.573	405	14.599	437
14.623	453	14.649	388
14.675	499	14.700	340
14.725	542	14.750	304
14.776	575	14.802	276
14.826	602	14.852	258
14.877	617	14.903	256
14.927	621	14.953	263
14.979	615	15.004	283
15.029	598	15.054	314
15.080	570	15.106	354
15.130	534	15.156	401
15.181	492	15.207	452
15.232	446	15.257	505
15.283	399	15.308	556
15.334	353	15.359	603
15.384	310	15.410	644
15.435	273	15.460	677
15.486	244	15.511	698
15.537	225	15.561	707
15.587	218	15.613	703
15.638	220	15.663	688
15.688	233	15.714	665
15.740	256	15.764	630
15.790	287	15.815	587
15.841	326	15.865	539
15.891	369	15.917	487
15.942	415	15.967	434
15.992	462	16.018	384
16.044	504	16.068	340
16.094	545	16.119	303
16.145	577	16.170	276
16.195	599	16.221	260
16.246	612	16.271	258
16.297	613	16.322	267
16.348	606	16.372	286
16.398	586	16.424	319
16.449	558	16.474	358
16.499	523	16.525	405
16.551	481	16.575	457
16.601	436	16.626	508
16.652	391	16.676	557
16.702	346	16.728	604
16.753	305	16.778	644
16.803	271	16.829	676
16.855	245	16.879	697
16.905	228	16.930	704
16.956	223	16.981	701
17.006	229	17.032	686
17.057	241	17.082	661
17.108	266	17.133	626
17.159	299	17.183	581
17.209	337	17.235	535
17.260	380	17.285	483
17.310	426	17.336	432
17.362	470	17.386	383
17.412	512	17.437	340
17.463	548	17.487	304
17.513	578	17.539	278
17.564	599	17.589	264
17.614	608	17.640	262
17.666	608	17.690	270
17.716	598	17.741	292
17.767	578	17.792	322
17.817	548	17.843	363
17.868	511	17.893	409
17.919	469	17.944	459
17.970	426	17.994	511
18.020	381	18.046	560
18.071	338	18.096	605
18.121	300	18.147	644
18.173	269	18.197	675
18.223	244	18.248	695
18.274	231	18.298	702
18.324	229	18.350	696
18.375	235	18.401	682
18.425	251	18.451	656
18.477	277	18.502	622
18.527	309	18.552	579
18.578	348	18.604	531
18.628	392	18.654	481
18.679	435	18.705	430
18.730	480	18.755	383
18.781	519	18.806	340
18.831	554	18.857	305
18.882	580	18.908	280
18.932	598	18.958	267
18.984	605	19.009	266
19.034	603	19.059	275
19.085	591	19.111	295
19.135	568	19.161	328
19.186	538	19.212	368
19.236	501	19.262	414
19.288	460	19.313	463
19.338	417	19.363	513
19.389	372	19.415	561
19.439	331	19.465	606
19.490	296	19.516	643
19.541	265	19.566	672
19.592	244	19.617	690
19.642	233	19.668	696
19.693	233	19.719	692
19.743	241	19.769	676
19.795	259	19.820	651
19.845	286	19.870	617
19.896	320	19.922	575
19.946	360	19.972	529
19.997	402	20.023	477
20.047	446	20.073	429
20.099	487	20.124	383
20.149	526	20.174	342
20.200	557	20.226	308
20.250	583	20.276	284
20.301	598	20.327	271
20.352	603	20.377	271
20.403	598	20.428	281
20.453	584	20.479	303
20.504	560	20.530	333
20.554	528	20.580	373
20.606	491	20.631	418
20.656	448	20.681	466
20.707	406	20.733	515
20.757	364	20.783	562
20.808	323	20.834	604
20.858	290	20.884	641
20.910	262	20.935	669
20.960	241	20.985	687
21.011	235	21.037	690
21.061	237	21.087	686
21.112	246	21.138	671
21.163	266	21.188	645
21.214	294	21.239	609
21.264	330	21.290	570
21.315	370	21.341	524
21.365	411	21.391	476
21.417	455	21.442	428
21.467	496	21.492	382
21.518	533	21.544	343
21.568	562	21.594	311
21.619	587	21.645	288
21.670	598	21.695	278
21.721	601	21.746	278
21.771	594	21.796	288
21.822	577	21.848	310
21.872	552	21.898	341
21.923	519	21.949	380
21.974	481	21.999	423
22.025	439	22.050	470
22.075	397	22.101	518
22.126	355	22.152	564
22.176	317	22.202	604
22.228	284	22.253	639
22.278	259	22.303	667
22.329	242	22.355	681
22.379	237	22.405	685
22.430	239	22.456	679
22.481	252	22.506	664
22.532	273	22.557	638
22.582	303	22.607	603
22.633	338	22.659	564
22.683	377	22.709	521
22.734	421	22.760	472
22.785	465	22.810	426
22.836	503	22.861	382
22.887	539	22.912	344
22.937	567	22.963	314
22.988	588	23.013	292
23.039	598	23.064	284
23.090	598	23.114	285
23.140	591	23.166	295
23.191	572	23.216	317
23.241	545	23.267	348
23.293	512	23.317	386
23.343	472	23.368	429
23.394	431	23.418	474
23.444	388	23.470	520
23.495	347	23.520	565
23.545	310	23.571	604
23.597	278	23.621	637
23.647	254	23.672	661
23.698	241	23.723	676
23.748	236	23.774	679
23.799	242	23.824	672
23.850	256	23.875	657
23.901	279	23.925	631
23.951	310	23.977	597
24.002	347	24.027	558
24.052	388	24.078	514
24.104	430	24.128	468
24.154	471	24.179	423
24.205	511	24.230	382
24.255	545	24.281	346
24.306	571	24.331	318
24.356	590	24.382	299
24.408	598	24.432	290
24.458	598	24.483	292
24.509	587	24.534	303
24.559	567	24.585	325
24.610	539	24.635	356
24.661	504	24.686	392
24.712	465	24.736	432
24.762	423	24.788	480
24.813	381	24.838	523
24.863	339	24.889	565
24.915	304	24.939	603
24.965	274	24.990	634
25.016	251	25.041	658
25.066	240	25.092	669
25.117	238	25.142	672
25.167	244	25.193	665
25.219	261	25.243	648
25.269	285	25.294	622
25.320	317	25.345	590
25.370	355	25.396	551
25.421	396	25.446	508
25.472	438	25.497	465
25.523	479	25.547	421
25.573	517	25.599	381
25.624	550	25.649	348
25.674	576	25.700	322
25.726	592	25.750	305
25.776	599	25.801	297
25.827	597	25.852	299
25.877	584	25.903	311
25.928	562	25.954	334
25.978	534	26.004	365
26.030	498	26.055	402
26.080	457	26.105	441
26.131	414	26.157	484
26.181	374	26.207	527
26.232	334	26.258	567
26.283	297	26.308	602
26.334	269	26.359	631
26.384	248	26.410	651
26.435	239	26.461	664
26.485	239	26.511	663
26.537	246	26.562	657
26.587	263	26.612	639
26.638	290	26.664	615
26.688	323	26.714	580
26.739	361	26.765	543
26.790	402	26.815	502
26.841	444	26.866	460
26.891	486	26.916	419
26.942	523	26.968	381
26.992	555	27.018	350
27.043	580	27.069	324
27.094	593	27.119	309
27.145	599	27.170	304
27.195	596	27.221	307
27.246	581	27.272	321
27.296	559	27.322	343
27.348	529	27.373	373
27.398	492	27.423	409
27.449	452	27.475	448
27.499	409	27.525	491
27.550	367	27.576	530
27.601	328	27.626	568
27.652	294	27.677	602
27.702	265	27.727	629
27.753	246	27.779	647
27.803	239	27.829	656
27.854	239	27.880	657
27.905	248	27.930	649
27.956	267	27.981	630
28.006	294	28.032	604
28.057	328	28.083	572
28.107	367	28.133	535
28.159	408	28.184	497
28.209	450	28.234	455
28.260	491	28.286	416
28.310	529	28.336	380
28.361	558	28.387	350
28.412	582	28.437	329
28.463	594	28.488	316
28.513	599	28.538	312
28.564	595	28.590	316
28.614	579	28.640	331
28.665	556	28.691	353
28.716	524	28.741	382
28.767	486	28.792	417
28.817	446	28.843	455
28.868	404	28.894	495
28.918	362	28.944	535
28.970	324	28.995	570
29.020	290	29.045	602
29.071	263	29.097	628
29.121	245	29.147	643
29.172	239	29.198	650
29.223	239	29.248	649
29.274	250	29.299	639
29.324	270	29.350	621
29.375	298	29.401	595
29.425	333	29.451	563
29.476	372	29.502	528
29.527	413	29.552	489
29.578	456	29.603	450
29.629	496	29.654	413
29.679	532	29.705	380
29.730	560	29.755	352
29.781	584	29.806	332
29.832	596	29.856	322
29.882	598	29.908	319
29.933	593	29.958	323
29.983	576	30.009	339
30.035	552	30.059	363
30.085	520	30.110	391
30.136	482	30.161	427
30.186	442	30.212	464
30.237	399	30.262	502
30.287	358	30.313	539
30.339	320	30.363	572
30.389	288	30.414	602
30.440	261	30.465	625
30.490	245	30.516	639
30.541	239	30.566	644
30.592	241	30.617	642
30.643	253	30.667	630
30.693	274	30.719	611
30.744	302	30.769	586
30.794	337	30.820	554
30.846	376	30.870	519
30.896	418	30.921	480
30.947	460	30.972	444
30.997	499	31.023	409
31.048	535	31.073	378
31.098	564	31.124	353
31.150	585	31.174	335
31.200	596	31.225	327
31.251	598	31.276	326
31.301	591	31.327	333
31.352	574	31.377	350
31.403	549	31.428	373
31.454	516	31.478	402
31.504	479	31.530	436
31.555	437	31.580	472
31.605	396	31.631	508
31.657	355	31.681	544
31.707	317	31.732	575
31.758	285	31.783	603
31.808	260	31.834	622
31.859	245	31.884	634
31.910	239	31.935	638
31.961	241	31.985	634
32.011	256	32.036	623
32.062	276	32.087	602
32.112	306	32.138	576
32.163	341	32.188	544
32.214	380	32.239	510
32.265	422	32.289	473
32.315	464	32.341	437
32.366	503	32.391	404
32.416	537	32.442	377
32.468	566	32.492	354
32.518	585	32.543	339
32.569	596	32.594	332
32.619	597	32.645	332
32.670	589	32.696	341
32.721	571	32.746	360
32.772	545	32.797	382
32.822	512	32.847	412
32.873	475	32.899	446
32.923	434	32.949	480
32.974	392	33.000	515
33.025	352	33.050	549
33.076	315	33.101	579
33.126	284	33.152	603
33.177	260	33.203	621
33.227	246	33.253	630
33.279	241	33.304	633
33.329	245	33.354	627
33.380	259	33.406	614
33.430	280	33.456	592
33.481	309	33.507	566
33.532	345	33.557	535
33.583	385	33.608	500
33.633	425	33.658	466
33.684	466	33.710	432
33.734	505	33.760	400
33.785	538	33.811	374
33.836	567	33.861	354
33.887	584	33.912	342
33.937	594	33.963	336
33.988	595	34.014	339
34.038	586	34.064	350
34.090	568	34.115	368
34.140	541	34.165	392
34.191	509	34.217	421
34.241	470	34.267	454
34.292	429	34.318	489
34.343	389	34.368	522
34.394	350	34.419	555
34.444	314	34.470	582
34.495	283	34.521	605
34.545	261	34.571	620
34.596	248	34.622	627
34.647	243	34.672	629
34.698	248	34.723	620
34.748	261	34.774	605
34.799	285	34.825	582
34.849	313	34.875	556
34.901	348	34.926	526
34.951	387	34.976	492
35.002	428	35.028	458
35.052	468	35.078	424
35.103	506	35.129	396
35.154	539	35.179	372
35.205	566	35.230	354
35.255	584	35.281	345
35.306	592	35.332	340
35.356	592	35.382	345
35.407	583	35.433	357
35.458	564	35.483	378
35.509	538	35.534	400
35.559	506	35.585	431
35.610	467	35.636	464
35.660	428	35.686	497
35.712	387	35.737	529
35.762	348	35.787	560
35.813	312	35.839	586
35.863	284	35.889	605
35.914	262	35.940	619
35.965	250	35.990	624
36.016	246	36.041	623
36.066	252	36.092	613
36.117	265	36.143	597
36.167	287	36.193	575
36.218	317	36.244	547
36.269	352	36.294	515
36.320	390	36.345	483
36.370	430	36.396	449
36.421	470	36.447	419
36.471	507	36.497	393
36.523	538	36.548	370
36.573	564	36.598	353
36.624	581	36.650	345
36.674	590	36.700	344
36.725	589	36.751	351
36.776	579	36.801	365
36.827	560	36.852	385
36.877	534	36.903	410
36.928	501	36.954	440
36.978	464	37.004	472
37.030	425	37.055	505
37.080	386	37.105	536
37.131	347	37.156	565
37.181	314	37.207	589
37.232	284	37.258	607
37.282	264	37.308	618
37.334	252	37.359	622
37.384	250	37.409	618
37.435	255	37.461	608
37.485	270	37.511	589
37.536	292	37.562	567
37.587	320	37.612	538
37.638	357	37.663	508
37.688	393	37.714	475
37.739	432	37.765	443
37.789	472	37.815	413
37.841	508	37.866	388
37.891	538	37.916	368
37.942	562	37.967	353
37.992	579	38.018	347
38.043	585	38.069	347
38.093	585	38.119	356
38.145	574	38.170	371
38.195	555	38.220	394
38.246	529	38.272	419
38.296	498	38.322	448
38.347	460	38.373	481
38.398	422	38.423	512
38.449	384	38.474	542
38.499	348	38.525	570
38.550	314	38.576	592
38.600	287	38.626	608
38.652	267	38.677	618
38.702	256	38.727	621
38.753	254	38.778	614
38.803	260	38.829	602
38.854	274	38.880	584
38.904	297	38.930	559
38.956	326	38.981	531
39.006	360	39.031	498
39.057	397	39.083	467
39.107	433	39.133	437
39.158	472	39.184	407
39.209	507	39.234	383
39.260	538	39.285	365
39.310	559	39.336	353
39.361	575	39.387	348
39.411	580	39.437	350
39.463	580	39.488	360
39.513	569	39.538	377
39.564	550	39.590	400
39.614	523	39.640	426
39.665	492	39.691	456
39.715	457	39.741	488
39.767	419	39.792	520
39.817	382	39.842	549
39.868	347	39.894	575
39.918	315	39.944	595
39.969	288	39.995	610
40.020	270	40.045	618
40.071	261	40.096	617
40.121	259	40.147	611
40.172	265	40.198	597
40.222	282	40.248	578
40.274	302	40.299	552
40.324	331	40.349	523
40.375	366	40.401	492
40.425	400	40.451	460
40.476	437	40.502	429
40.526	473	40.552	402
40.578	506	40.603	378
40.628	535	40.653	363
40.679	557	40.705	353
40.729	571	40.755	348
40.780	576	40.806	353
40.831	575	40.856	364
40.882	564	40.907	383
40.932	545	40.958	405
40.983	520	41.009	433
41.033	487	41.059	464
41.085	453	41.110	495
41.135	417	41.160	526
41.186	381	41.212	555
41.236	346	41.262	579
41.287	317	41.313	599
41.337	291	41.363	612
41.389	275	41.414	618
41.439	266	41.464	616
41.490	265	41.516	608
41.540	271	41.566	594
41.591	286	41.617	572
41.642	309	41.667	545
41.693	336	41.718	516
41.743	369	41.769	485
41.794	404	41.820	453
41.844	439	41.870	424
41.896	475	41.921	396
41.946	506	41.971	376
41.997	533	42.023	360
42.047	553	42.073	352
42.098	566	42.124	349
42.148	571	42.174	353
42.200	568	42.225	368
42.251	557	42.275	387
42.301	538	42.327	411
42.352	513	42.377	440
42.402	482	42.428	471
42.454	449	42.478	502
42.504	412	42.529	533
42.555	378	42.580	560
42.605	346	42.631	584
42.656	318	42.681	602
42.707	296	42.732	613
42.758	279	42.782	618
42.808	270	42.834	615
42.859	270	42.884	604
42.909	278	42.935	589
42.961	293	42.985	566
43.011	314	43.036	540
43.062	342	43.086	510
43.112	374	43.138	478
43.163	407	43.188	448
43.213	442	43.239	418
43.265	475	43.289	393
43.315	506	43.340	371
43.366	531	43.391	358
43.416	550	43.442	352
43.467	562	43.492	350
43.518	566	43.543	357
43.569	563	43.593	371
43.619	550	43.645	391
43.670	532	43.695	416
43.720	507	43.746	446
43.772	477	43.796	476
43.822	445	43.847	508
43.873	411	43.897	538
43.923	377	43.949	565
43.974	346	43.999	588
44.024	319	44.050	604
44.076	298	44.100	614
44.126	283	44.151	618
44.177	276	44.202	614
44.227	276	44.253	602
44.278	285	44.303	585
44.329	299	44.354	562
44.380	322	44.404	534
44.430	348	44.456	504
44.481	379	44.506	473
44.531	413	44.557	442
44.583	447	44.607	414
44.633	477	44.658	388
44.684	504	44.708	369
44.734	529	44.760	357
44.785	546	44.810	350
44.835	556	44.861	351
44.887	560	44.911	359
44.937	556	44.962	376
44.988	543	45.013	396
45.038	524	45.064	421
45.089	499	45.114	451
45.140	471	45.165	481
45.191	439	45.216	513
45.241	406	45.267	542
45.292	376	45.318	569
45.342	345	45.368	591
45.394	320	45.419	606
45.444	300	45.469	615
45.495	288	45.521	617
45.545	283	45.571	613
45.596	283	45.622	599
45.646	292	45.672	582
45.698	307	45.723	558
45.748	329	45.773	530
45.799	355	45.825	498
45.849	385	45.875	468
45.900	416	45.926	437
45.951	448	45.976	409
46.002	478	46.027	385
46.052	505	46.078	368
46.103	527	46.129	355
46.153	542	46.179	350
46.205	552	46.230	352
46.255	554	46.280	361
46.306	548	46.332	377
46.356	536	46.382	399
46.407	518	46.433	425
46.457	493	46.483	454
46.509	464	46.534	486
46.559	433	46.584	518
46.610	403	46.636	547
46.660	373	46.686	572
